Wavelength,,2.9 mm,4.2 mm or,4.8 mm,5.1 mm,5.5 mm,7.9 mm,8.7 mm
,,,4.1 mm,,,,,
Suspected species,Pr,OH,Pr or SH,Pr,COS,oxide,-,SO4 2-
,(x10-2),(x10-1),(x10-2),(x10-2),(x10-2),(x10-2),(x10-1),(x10-1)
1,4.3,5.0,1.6,1.2,1.1,1.4,2.3,5.1
2,5.9,1.1,1.0,1.0,0.3,0.6,1.7,3.5
3,3.3,2.0,1.3,1.8,1.5,2.0,,5.9
4,3.3,2.2,1.4,1.8,1.5,2.3,,4.8
5,4.4,0.6,1.6,1.9,1.3,2.0,,2.2
,,,,,,,,
6,,0.6,,,2.6,3.0,,3.6
7,,0.6,,,1.5,2.4,,3.6
8,,1.4,0.9,,0.9,1.3,,5.4
,,,,,,,,
9,,0.4,0.7,,1.6,2.7,,1.1
10,,0.2,0.7,,3.1,4.2,,0.6
11,,0.4,1.0,,1.9,2.8,,1.2
12,,0.1,,,0.3,0.7,,1.2
